Time (s),Channel 1 (V),Channel 2 (V)
0.01117265142857143,1.242837826003786,1.150654428297957
0.01117313142857143,1.245199752607121,1.153016666836147
0.01117361142857143,1.24654942495188,1.154366517429395
0.01117409142857143,1.248911351555216,1.15605383067096
0.01117457142857143,1.250935860072361,1.158078606560837
0.01117505142857143,1.251948114330929,1.158753531857461
0.01117553142857143,1.253297786675693,1.160103382450712
0.01117601142857143,1.254310040934262,1.16145323304396
0.01117649142857143,1.257009385623786,1.164490396878774
0.01117697142857143,1.258696476054743,1.166177710120341
0.01117745142857143,1.261395820744269,1.16820248601022
0.01117793142857143,1.263082911175218,1.169889799251779
0.01117841142857143,1.265782255864744,1.171914575141657
0.01117889142857143,1.267806764381882,1.17427681367984
0.01117937142857143,1.268819018640457,1.17495173897647
0.01117985142857143,1.270506109071411,1.176976514866347
0.01118033142857143,1.271855781416177,1.178326365459602
0.01118081142857143,1.274217708019506,1.180688603997785
0.01118129142857143,1.27556738036427,1.182038454591037
0.01118177142857143,1.277591888881409,1.183725767832597
0.01118225142857143,1.279616397398554,1.185750543722475
0.01118273142857143,1.281640905915699,1.187775319612351
0.01118321142857143,1.282653160174268,1.187775319612351
0.01118369142857143,1.284340250605223,1.189800095502228
0.01118417142857143,1.286702177208551,1.191149946095476
0.01118465142857143,1.288389267639508,1.192499796688728
0.01118513142857143,1.290413776156652,1.194862035226918
0.01118561142857143,1.291426030415225,1.195874423171857
0.01118609142857143,1.292438284673794,1.196886811116793
0.01118657142857143,1.295137629363319,1.198236661710045
0.01118705142857143,1.295812465535699,1.198911587006669
0.01118753142857143,1.298174392139034,1.200936362896545
0.01118801142857143,1.298849228311416,1.201948750841485
0.01118849142857143,1.300536318742365,1.203973526731357
0.01118897142857143,1.302560827259511,1.205998302621236
0.01118945142857143,1.303910499604274,1.208023078511113
0.01118993142857143,1.304922753862843,1.209035466456049
0.01119041142857143,1.307284680466178,1.211060242345926
0.01119089142857143,1.308296934724753,1.212410092939178
0.01119137142857143,1.309984025155701,1.213085018235801
0.01119185142857143,1.310996279414274,1.214434868829053
0.01119233142857143,1.312345951759033,1.215784719422301
0.01119281142857143,1.314033042189988,1.217809495312178
0.01119329142857143,1.315382714534752,1.218821883257118
0.01119377142857143,1.316732386879511,1.219834271202054
0.01119425142857143,1.317744641138084,1.220846659146993
0.01119473142857143,1.319431731569038,1.22287143503687
0.01119521142857143,1.320106567741417,1.223546360333494
0.01119569142857143,1.321793658172371,1.224558748278433
0.01119617142857143,1.323143330517136,1.226246061519999
0.01119665142857143,1.325505257120465,1.22827083740987
0.01119713142857143,1.32685492946523,1.229620688003123
0.01119761142857143,1.328204601809988,1.231308001244683
0.01119809142857143,1.329891692240942,1.232657851837935
0.01119857142857143,1.331241364585706,1.233670239782875
0.01119905142857143,1.331916200758089,1.233670239782878
0.01119953142857143,1.332928455016658,1.235357553024437
0.01120001142857143,1.333603291189041,1.236032478321065
0.01120049142857143,1.3349529635338,1.237382328914312
0.01120097142857143,1.336977472050945,1.239069642155878
0.01120145142857143,1.338327144395709,1.240756955397442
0.01120193142857143,1.340351652912847,1.242444268639002
0.01120241142857143,1.341026489085231,1.242781731287317
0.01120289142857143,1.341363907171424,1.243119193935631
0.01120337142857143,1.343050997602373,1.244469044528879
0.01120385142857143,1.344400669947137,1.246156357770444
0.01120433142857143,1.345075506119519,1.247168745715383
0.01120481142857143,1.346425178464278,1.248518596308631
0.01120529142857143,1.347774850809043,1.249193521605258
0.01120577142857143,1.349461941239991,1.250880834846818
0.01120625142857143,1.350811613584756,1.251218297495133
0.01120673142857143,1.351149031670948,1.251218297495134
0.01120721142857143,1.352161285929517,1.25223068544007
0.01120769142857143,1.35317354018809,1.253917998681634
0.01120817142857143,1.353848376360473,1.254592923978262
0.01120865142857143,1.355872884877612,1.256955162516446
0.01120913142857143,1.356547721049996,1.257630087813074
0.01120961142857143,1.357222557222378,1.258642475758012
0.01121009142857143,1.357897393394757,1.258642475758012
0.01121057142857143,1.35890964765333,1.259992326351263
0.01121105142857143,1.359247065739523,1.259992326351265
0.01121153142857143,1.361271574256661,1.261342176944513
0.01121201142857143,1.362283828515235,1.262354564889453
0.01121249142857143,1.363970918946188,1.264041878131016
0.01121297142857143,1.364308337032378,1.264379340779328
0.01121345142857143,1.365658009377141,1.264716803427642
0.01121393142857143,1.3670076817219,1.266741579317514
0.01121441142857143,1.367345099808092,1.267753967262454
0.01121489142857143,1.367682517894284,1.267753967262456
0.01121537142857143,1.368357354066663,1.269441280504016
0.01121585142857143,1.369032190239045,1.269778743152331
0.01121633142857143,1.370044444497619,1.270791131097269
0.01121681142857143,1.371394116842378,1.271466056393893
0.01121729142857143,1.372068953014761,1.27214098169052
0.01121777142857143,1.373756043445714,1.273828294932083
0.01121825142857143,1.374768297704283,1.273828294932083
0.01121873142857143,1.375105715790475,1.274503220228708
0.01121921142857143,1.375780551962855,1.27484068287702
0.01121969142857143,1.376792806221427,1.275853070821958
0.01122017142857143,1.377130224307618,1.276190533470271
0.01122065142857143,1.376792806221428,1.276190533470271
0.01122113142857143,1.377805060479999,1.276865458766896
0.01122161142857143,1.379492150910953,1.277877846711835
0.01122209142857143,1.380504405169522,1.278552772008459
0.01122257142857143,1.380841823255714,1.280240085250023
0.01122305142857143,1.381179241341905,1.279902622601713
0.01122353142857143,1.381516659428095,1.28125247319496
0.01122401142857143,1.382528913686667,1.281927398491587
0.01122449142857143,1.382528913686667,1.282602323788212
0.01122497142857143,1.382866331772857,1.282602323788212
0.01122545142857143,1.383203749859048,1.283277249084838
0.01122593142857143,1.384216004117621,1.283614711733151
0.01122641142857143,1.38489084029,1.283952174381463
0.01122689142857143,1.385228258376191,1.284289637029776
0.01122737142857143,1.385903094548571,1.285302024974712
0.01122785142857143,1.386915348807143,1.286314412919651
0.01122833142857143,1.386915348807144,1.286314412919652
0.01122881142857143,1.387252766893334,1.286989338216276
0.01122929142857143,1.388602439238096,1.288001726161215
0.01122977142857143,1.389614693496669,1.28867665145784
0.01123025142857143,1.390289529669048,1.28867665145784
0.01123073142857143,1.390289529669049,1.288339188809527
0.01123121142857143,1.390626947755238,1.289014114106153
0.01123169142857143,1.389952111582859,1.289014114106153
0.01123217142857143,1.390289529669049,1.289351576754465
0.01123265142857143,1.390626947755239,1.289351576754465
0.01123313142857143,1.391639202013811,1.290363964699403
0.01123361142857143,1.392314038186193,1.290701427347716
0.01123409142857143,1.392988874358572,1.290701427347717
0.01123457142857143,1.392314038186192,1.291038889996029
0.01123505142857143,1.393663710530954,1.291713815292654
0.01123553142857143,1.393663710530954,1.292051277940967
0.01123601142857143,1.394338546703335,1.29238874058928
0.01123649142857143,1.395013382875716,1.292726203237592
0.01123697142857143,1.395013382875716,1.292726203237592
0.01123745142857143,1.396025637134288,1.293063665885905
0.01123793142857143,1.396363055220478,1.29373859118253
0.01123841142857143,1.396363055220478,1.29373859118253
0.01123889142857143,1.396700473306669,1.294076053830843
0.01123937142857143,1.39703789139286,1.29508844177578
0.01123985142857143,1.39703789139286,1.294413516479156
0.01124033142857143,1.397712727565241,1.295425904424094
0.01124081142857143,1.39805014565143,1.295425904424094
0.01124129142857143,1.39737530947905,1.295763367072406
0.01124177142857143,1.398050145651431,1.296438292369032
0.01124225142857143,1.398387563737621,1.296438292369032
0.01124273142857143,1.398050145651431,1.295763367072406
0.01124321142857143,1.398050145651432,1.295763367072407
0.01124369142857143,1.398724981823811,1.296438292369031
0.01124417142857143,1.398050145651431,1.295763367072406
0.01124465142857143,1.397712727565241,1.295763367072406
0.01124513142857143,1.397712727565241,1.295425904424094
0.01124561142857143,1.398387563737622,1.296775755017344
0.01124609142857143,1.398050145651432,1.296438292369032
0.01124657142857143,1.397712727565241,1.296100829720719
0.01124705142857143,1.397712727565241,1.295425904424094
0.01124753142857143,1.397712727565242,1.295763367072406
0.01124801142857143,1.398387563737622,1.295425904424094
0.01124849142857143,1.398724981823812,1.296438292369032
0.01124897142857143,1.399062399910002,1.296438292369032
0.01124945142857143,1.398050145651431,1.296438292369032
0.01124993142857143,1.399062399910002,1.297450680313969
0.01125041142857143,1.398387563737623,1.296775755017345
0.01125089142857143,1.398387563737622,1.296438292369032
0.01125137142857143,1.399399817996195,1.296775755017345
0.01125185142857143,1.400412072254764,1.297450680313969
0.01125233142857143,1.400412072254765,1.296438292369032
0.01125281142857143,1.400412072254765,1.297788142962283
0.01125329142857143,1.400412072254765,1.298125605610595
0.01125377142857143,1.401086908427146,1.298125605610595
0.01125425142857143,1.401424326513336,1.298125605610595
0.01125473142857143,1.402773998858098,1.299475456203845
0.01125521142857143,1.402099162685717,1.299137993555533
0.01125569142857143,1.401424326513337,1.298800530907221
0.01125617142857143,1.402773998858099,1.299812918852158
0.01125665142857143,1.403448835030479,1.300487844148784
0.01125713142857143,1.40311141694429,1.300825306797096
0.01125761142857143,1.403111416944289,1.300487844148784
0.01125809142857143,1.403448835030481,1.301162769445409
0.01125857142857143,1.40412367120286,1.301162769445409
0.01125905142857143,1.40344883503048,1.301162769445409
0.01125953142857143,1.40344883503048,1.301837694742033
0.01126001142857143,1.40344883503048,1.301162769445409
0.01126049142857143,1.404123671202861,1.301500232093722
0.01126097142857143,1.404123671202862,1.301837694742035
0.01126145142857143,1.404798507375242,1.302175157390347
0.01126193142857143,1.405473343547622,1.302512620038659
0.01126241142857143,1.404798507375243,1.301837694742035
0.01126289142857143,1.404798507375242,1.302175157390347
0.01126337142857143,1.405135925461431,1.301837694742034
0.01126385142857143,1.404123671202862,1.301500232093722
0.01126433142857143,1.404123671202861,1.300825306797096
0.01126481142857143,1.404123671202861,1.300487844148784
0.01126529142857143,1.404123671202861,1.300825306797096
0.01126577142857143,1.40412367120286,1.300825306797096
0.01126625142857143,1.403448835030478,1.300825306797096
0.01126673142857143,1.402773998858099,1.300487844148784
0.01126721142857143,1.40412367120286,1.300825306797096
0.01126769142857143,1.403448835030481,1.300150381500472
0.01126817142857143,1.40378625311667,1.300825306797096
0.01126865142857143,1.40412367120286,1.300487844148783
0.01126913142857143,1.40311141694429,1.299812918852159
0.01126961142857143,1.402773998858099,1.300150381500471
0.01127009142857143,1.402773998858098,1.299137993555534
0.01127057142857143,1.402436580771908,1.299812918852157
0.01127105142857143,1.402773998858099,1.299475456203846
0.01127153142857143,1.402099162685717,1.298463068258907
0.01127201142857143,1.401424326513337,1.298125605610595
0.01127249142857143,1.401086908427145,1.298125605610595
0.01127297142857143,1.400074654168576,1.297113217665659
0.01127345142857143,1.399062399910004,1.29610082972072
0.01127393142857143,1.398387563737622,1.295763367072406
0.01127441142857143,1.39805014565143,1.294750979127468
0.01127489142857143,1.397712727565241,1.294413516479156
0.01127537142857143,1.396700473306667,1.293738591182529
0.01127585142857143,1.394675964789528,1.292051277940969
0.01127633142857143,1.394338546703335,1.291713815292654
0.01127681142857143,1.394001128617144,1.291038889996028
0.01127729142857143,1.392988874358575,1.290026502051092
0.01127777142857143,1.392651456272383,1.289689039402778
0.01127825142857143,1.391639202013809,1.289351576754463
0.01127873142857143,1.39028952966905,1.287664263512904
0.01127921142857143,1.389952111582858,1.288001726161214
0.01127969142857143,1.388602439238096,1.286651875567962
0.01128017142857143,1.388265021151906,1.285639487623027
0.01128065142857143,1.387252766893334,1.284627099678088
0.01128113142857143,1.386240512634764,1.284289637029776
0.01128161142857143,1.385228258376191,1.283277249084838
0.01128209142857143,1.383541167945238,1.281927398491586
0.01128257142857143,1.383541167945238,1.281589935843275
0.01128305142857143,1.382528913686667,1.280577547898336
0.01128353142857143,1.381854077514285,1.280240085250022
0.01128401142857143,1.380841823255715,1.278890234656775
0.01128449142857143,1.379154732824761,1.278215309360147
0.01128497142857143,1.378479896652379,1.276865458766895
0.01128545142857143,1.377467642393809,1.275515608173647
0.01128593142857143,1.375780551962856,1.273828294932082
0.01128641142857143,1.375443133876665,1.272815906987144
0.01128689142857143,1.374768297704285,1.272478444338832
0.01128737142857143,1.374093461531903,1.271803519042206
0.01128785142857143,1.372743789187139,1.270453668448955
0.01128833142857143,1.37139411684238,1.270116205800643
0.01128881142857143,1.370719280669996,1.269778743152329
0.01128929142857143,1.368694772152858,1.26809142991077
0.01128977142857143,1.367682517894284,1.266404116669205
0.01129025142857143,1.36667026363571,1.265391728724266
0.01129073142857143,1.365320591290951,1.265054266075954
0.01129121142857143,1.364308337032378,1.263704415482702
0.01129169142857143,1.363296082773805,1.262354564889451
0.01129217142857143,1.362621246601426,1.261342176944515
0.01129265142857143,1.361608992342853,1.260329788999575
0.01129313142857143,1.359921901911901,1.258642475758012
0.01129361142857143,1.359921901911901,1.2583050131097
0.01129409142857143,1.358909647653329,1.256955162516449
0.01129457142857143,1.35755997530857,1.255942774571513
0.01129505142857143,1.356210302963806,1.254930386626574
0.01129553142857143,1.354185794446661,1.253580536033321
0.01129601142857143,1.352836122101902,1.252568148088386
0.01129649142857143,1.352498704015709,1.251218297495134
0.01129697142857143,1.350811613584755,1.249868446901882
0.01129745142857143,1.349124523153806,1.248518596308634
0.01129793142857143,1.347774850809042,1.247506208363694
0.01129841142857143,1.346425178464278,1.246493820418753
0.01129889142857143,1.345075506119519,1.24413158188057
0.01129937142857143,1.343388415688565,1.242781731287316
0.01129985142857143,1.342713579516183,1.241769343342378
0.01130033142857143,1.341701325257613,1.240756955397442
0.01130081142857143,1.340351652912849,1.240082030100814
0.01130129142857143,1.338327144395705,1.237719791562624
0.01130177142857143,1.336977472050946,1.236369940969377
0.01130225142857143,1.336302635878562,1.236032478321062
0.01130273142857143,1.334278127361423,1.234682627727814
0.01130321142857143,1.333265873102849,1.234007702431188
0.01130369142857143,1.331578782671895,1.23198292654131
0.01130417142857143,1.329891692240946,1.230633075948062
0.01130465142857143,1.327867183723801,1.228608300058185
0.01130513142857143,1.327192347551416,1.227258449464932
0.01130561142857143,1.324493002861898,1.225571136223372
0.01130609142857143,1.323480748603324,1.224558748278433
0.01130657142857143,1.32246849434475,1.22320889768518
0.01130705142857143,1.320781403913801,1.22152158444362
0.01130753142857143,1.318756895396656,1.219834271202054
0.01130801142857143,1.317744641138086,1.218484420608807
0.01130849142857143,1.316057550707133,1.217134570015554
0.01130897142857143,1.314033042189987,1.215109794125676
0.01130945142857143,1.312345951759033,1.213759943532424
0.01130993142857143,1.310996279414274,1.212072630290864
0.01131041142857143,1.309646607069511,1.211060242345925
0.01131089142857143,1.308971770897132,1.210047854400989
0.01131137142857143,1.306609844293797,1.207685615862799
0.01131185142857143,1.304585335776651,1.206335765269545
0.01131233142857143,1.302560827259512,1.203973526731362
0.01131281142857143,1.300873736828558,1.202623676138109
0.01131329142857143,1.299861482569984,1.201273825544856
0.01131377142857143,1.298174392139035,1.199586512303296
0.01131425142857143,1.297162137880461,1.198574124358356
0.01131473142857143,1.295475047449505,1.19688681111679
0.01131521142857143,1.293113120846177,1.194862035226918
0.01131569142857143,1.291088612329031,1.193512184633665
0.01131617142857143,1.289064103811893,1.191487408743795
0.01131665142857143,1.286364759122366,1.189125170205603
0.01131713142857143,1.285015086777601,1.18777531961235
0.01131761142857143,1.283327996346652,1.185750543722478
0.01131809142857143,1.282653160174269,1.18507561842585
0.01131857142857143,1.280291233570934,1.183050842535971
0.01131905142857143,1.278941561226175,1.1810260666461
0.01131953142857143,1.276242216536649,1.178663828107909
0.01132001142857143,1.274217708019505,1.176639052218033
0.01132049142857143,1.273205453760935,1.176301589569721
0.01132097142857143,1.27118094524379,1.174614276328156
0.01132145142857143,1.268819018640462,1.172589500438285
0.01132193142857143,1.267806764381886,1.171239649845031
0.01132241142857143,1.265782255864742,1.169214873955154
0.01132289142857143,1.264432583519975,1.168202486010212
0.01132337142857143,1.261395820744267,1.165502784823716
0.01132385142857143,1.259371312227121,1.163815471582149
0.01132433142857143,1.257684221796172,1.161115770395654
0.01132481142857143,1.254984877106646,1.157741143912524
0.01132529142857143,1.253972622848071,1.156728755967583
0.01132577142857143,1.251610696244742,1.154703980077711
0.01132625142857143,1.249586187727597,1.153354129484459
0.01132673142857143,1.247899097296642,1.152341741539518
0.01132721142857143,1.246212006865693,1.150316965649647
0.01132769142857143,1.243850080262357,1.147617264463143
0.01132817142857143,1.241488153659021,1.145929951221577
0.01132865142857143,1.239463645141882,1.144242637980017
0.01132913142857143,1.236426882366165,1.141542936793514
0.01132961142857143,1.234064955762837,1.139180698255331
0.01133009142857143,1.233052701504261,1.138505772958702
0.01133057142857143,1.232715283418069,1.136818459717136
0.01133105142857143,1.23069077490093,1.134793683827265
0.01133153142857143,1.227654012125212,1.132431445289073
0.01133201142857143,1.224954667435685,1.12973174410257
0.01133249142857143,1.222930158918548,1.128044430861011
0.01133297142857143,1.220905650401402,1.126019654971132
0.01133345142857143,1.218206305711875,1.12365741643294
0.01133393142857143,1.216181797194736,1.121295177894757
0.01133441142857143,1.214494706763781,1.119607864653191
0.01133489142857143,1.212132780160452,1.117920551411631
0.01133537142857143,1.209433435470925,1.115220850225128
0.01133585142857143,1.207071508867589,1.112858611686937
0.01133633142857143,1.204709582264253,1.110496373148747
0.01133681142857143,1.202685073747114,1.1091465225555
0.01133729142857143,1.199648310971397,1.106109358720683
0.01133777142857143,1.197961220540448,1.104759508127436
0.01133825142857143,1.195936712023302,1.103072194885871
0.01133873142857143,1.193912203506157,1.100372493699367
0.01133921142857143,1.191887694989019,1.098347717809496
0.01133969142857143,1.189863186471873,1.09666040456793
0.01134017142857143,1.187163841782345,1.093960703381424
0.01134065142857143,1.184464497092827,1.090586076898305
0.01134113142857143,1.181765152403299,1.088223838360113
0.01134161142857143,1.179403225799965,1.086536525118549
0.01134209142857143,1.178390971541395,1.085861599821925
0.01134257142857143,1.17569162685187,1.083161898635422
0.01134305142857143,1.173329700248541,1.081137122745551
0.01134353142857143,1.170967773645204,1.078774884207359
