Time (s),Channel 1 (V),Channel 2 (V)
0.0113765175,-1.523446405579029,-0.02135334929195171
0.0113767875,-1.534580103483858,-0.02169081194026422
0.0113770575,-1.549425034023619,-0.02169081194026469
0.0113773275,-1.560558731928458,-0.02202827458857628
0.0113775975,-1.579114895103167,-0.02169081194026422
0.0113778675,-1.597671058277861,-0.0216908119402653
0.0113781375,-1.608804756182699,-0.0220282745885769
0.0113784075,-1.623649686722372,-0.0220282745885769
0.0113786775,-1.642205849897072,-0.02236573723688895
0.0113789475,-1.653339547801911,-0.02202827458857736
0.0113792175,-1.671895710976609,-0.0220282745885769
0.0113794875,-1.683029408881441,-0.0220282745885769
0.0113797575,-1.697874339421207,-0.0220282745885769
0.0113800275,-1.709008037326032,-0.02202827458857674
0.0113802975,-1.720141735230864,-0.02169081194026453
0.0113805675,-1.738697898405568,-0.02202827458857643
0.0113808375,-1.753542828945328,-0.02169081194026484
0.0113811075,-1.764676526850162,-0.0220282745885769
0.0113813775,-1.779521457389834,-0.0220282745885769
0.0113816475,-1.790655155294673,-0.02236573723688849
0.0113819175,-1.801788853199498,-0.02236573723688957
0.0113821875,-1.820345016374187,-0.02202827458857766
0.0113824575,-1.831478714279029,-0.0220282745885769
0.0113827275,-1.842612412183859,-0.0220282745885769
0.0113829975,-1.857457342723623,-0.0220282745885769
0.0113832675,-1.86859104062845,-0.02169081194026422
0.0113835375,-1.879724738533278,-0.0220282745885769
0.0113838075,-1.898280901707977,-0.0220282745885769
0.0113840775,-1.905703366977866,-0.02202827458857736
0.0113843475,-1.916837064882698,-0.02236573723688895
0.0113846175,-1.931681995422456,-0.0220282745885769
0.0113848875,-1.942815693327282,-0.02202827458857505
0.0113851575,-1.953949391232107,-0.02135334929195048
0.0113854275,-1.965083089136861,-0.0210158866436398
0.0113856975,-1.972505554406755,-0.02067842399532697
0.0113859675,-1.983639252311572,-0.02135334929195033
0.0113862375,-1.994772950216397,-0.02101588664363934
0.0113865075,-2.005906648121222,-0.02135334929195125
0.0113867775,-2.009617880756171,-0.02202827458857659
0.0113870475,-2.020751578660993,-0.0220282745885769
0.0113873175,-2.028174043930886,-0.0220282745885769
0.0113875875,-2.043018974470643,-0.0220282745885769
0.0113878575,-2.05044143974054,-0.02202827458857628
0.0113881275,-2.065286370280299,-0.02169081194026499
0.0113883975,-2.076420068185104,-0.0220282745885769
0.0113886675,-2.080131300820022,-0.0220282745885769
0.0113889375,-2.094976231359754,-0.0220282745885769
0.0113892075,-2.102398696629658,-0.02169081194026499
0.0113894775,-2.109821161899541,-0.02101588664364011
0.0113897475,-2.120954859804359,-0.02101588664363888
0.0113900175,-2.132088557709185,-0.02135334929195125
0.0113902875,-2.139511022979071,-0.02135334929195155
0.0113905575,-2.146933488248955,-0.02135334929195155
0.0113908275,-2.15435595351884,-0.02169081194026422
0.0113910975,-2.165489651423659,-0.02169081194026361
0.0113913675,-2.16920088405861,-0.02101588664363934
0.0113916375,-2.180334581963432,-0.02135334929195002
0.0113919075,-2.187757047233296,-0.02067842399532621
0.0113921775,-2.187757047233319,-0.02067842399532621
0.0113924475,-2.195179512503203,-0.02067842399532621
0.0113927175,-2.202601977773039,-0.02067842399532621
0.0113929875,-2.210024443042923,-0.02034096134701415
0.0113932575,-2.213735675677871,-0.02034096134701354
0.0113935275,-2.217446908312813,-0.02034096134701354
0.0113937975,-2.221158140947755,-0.02034096134701354
0.0113940675,-2.228580606217637,-0.02067842399532621
0.0113943375,-2.23600307148752,-0.02135334929195125
0.0113946075,-2.2434255367574,-0.02067842399532651
0.0113948775,-2.247136769392342,-0.02101588664363888
0.0113951475,-2.250848002027284,-0.02101588664363827
0.0113954175,-2.254559234662234,-0.02067842399532544
0.0113956875,-2.26198169993207,-0.02034096134701477
0.0113959575,-2.261981699932097,-0.02000349869870194
0.0113962275,-2.261981699932097,-0.02000349869870087
0.0113964975,-2.269404165201964,-0.02034096134701292
0.0113967675,-2.273115397836913,-0.02034096134701354
0.0113970375,-2.287960328376664,-0.02000349869870117
0.0113973075,-2.291671561011616,-0.02000349869870087
0.0113975775,-2.299094026281498,-0.01966603605038819
0.0113978475,-2.306516491551378,-0.01966603605038819
0.0113981175,-2.306516491551382,-0.01966603605038789
0.0113983875,-2.310227724186318,-0.01932857340207506
0.0113986575,-2.310227724186311,-0.01899111075376285
0.0113989275,-2.306516491551386,-0.01899111075376285
0.0113991975,-2.310227724186318,-0.01899111075376193
0.0113994675,-2.31022772418633,-0.01865364810545125
0.0113997375,-2.313938956821248,-0.01899111075376193
0.0114000075,-2.313938956821258,-0.01899111075376285
0.0114002775,-2.313938956821258,-0.01899111075376285
0.0114005475,-2.313938956821258,-0.01865364810545064
0.0114008175,-2.317650189456195,-0.01865364810545018
0.0114010875,-2.321361422091138,-0.01831618545713751
0.0114013575,-2.32136142209114,-0.01831618545713751
0.0114016275,-2.325072654726075,-0.01831618545713751
0.0114018975,-2.321361422091143,-0.01831618545713705
0.0114021675,-2.325072654726078,-0.01797872280882484
0.0114024375,-2.325072654726087,-0.0179787228088256
0.0114027075,-2.328783887361008,-0.01831618545713751
0.0114029775,-2.32507265472609,-0.01831618545713751
0.0114032475,-2.325072654726078,-0.01797872280882576
0.0114035175,-2.325072654726078,-0.01831618545713674
0.0114037875,-2.325072654726078,-0.01764126016051339
0.0114040575,-2.325072654726078,-0.01764126016051216
0.0114043275,-2.325072654726078,-0.0173037975121998
0.0114045975,-2.328783887361017,-0.01730379751219949
0.0114048675,-2.328783887361018,-0.01696633486388682
0.0114051375,-2.325072654726076,-0.01662887221557415
0.0114054075,-2.321361422091133,-0.01662887221557461
0.0114056775,-2.317650189456205,-0.01696633486388621
0.0114059475,-2.32136142209113,-0.01662887221557415
0.0114062175,-2.317650189456188,-0.01662887221557415
0.0114064875,-2.313938956821235,-0.01662887221557522
0.0114067575,-2.306516491551378,-0.01696633486388559
0.0114070275,-2.306516491551378,-0.01662887221557491
0.0114072975,-2.306516491551378,-0.01696633486388621
0.0114075675,-2.306516491551378,-0.0162914095672624
0.0114078375,-2.299094026281504,-0.01629140956726148
0.0114081075,-2.299094026281498,-0.01595394691894896
0.0114083775,-2.299094026281498,-0.01629140956726148
0.0114086475,-2.291671561011618,-0.01595394691894865
0.0114089175,-2.291671561011611,-0.01561648427063613
0.0114091875,-2.284249095741727,-0.01561648427063521
0.0114094575,-2.276826630471857,-0.01494155897401018
0.0114097275,-2.276826630471857,-0.0146040963256972
0.0114099975,-2.276826630471857,-0.01426663367738668
0.0114102675,-2.273115397836928,-0.0146040963256972
0.0114105375,-2.269404165201986,-0.01494155897401002
0.0114108075,-2.261981699932111,-0.01426663367738668
0.0114110775,-2.258270467297162,-0.01426663367738545
0.0114113475,-2.250848002027284,-0.01359170838076072
0.0114116175,-2.247136769392339,-0.0135917083807601
0.0114118875,-2.239714304122457,-0.01392917102907277
0.0114121575,-2.232291838852576,-0.01359170838076026
0.0114124275,-2.232291838852566,-0.01392917102907277
0.0114126975,-2.221158140947752,-0.01392917102907277
0.0114129675,-2.217446908312803,-0.01392917102907155
0.0114132375,-2.210024443042911,-0.01325424573244743
0.0114135075,-2.198890745138116,-0.01325424573244743
0.0114137775,-2.198890745138081,-0.01325424573244743
0.0114140475,-2.187757047233326,-0.01325424573244743
0.0114143175,-2.187757047233296,-0.01291678308413553
0.0114145875,-2.180334581963429,-0.01291678308413476
0.0114148575,-2.172912116693542,-0.01291678308413476
0.0114151275,-2.16177841878872,-0.01257932043582224
0.0114153975,-2.158067186153775,-0.01224185778750942
0.0114156675,-2.146933488248953,-0.01224185778750942
0.0114159375,-2.143222255614005,-0.01224185778750911
0.0114162075,-2.13208855770918,-0.01190439513919674
0.0114164775,-2.120954859804368,-0.01190439513919736
0.0114167475,-2.117243627169409,-0.01224185778750942
0.0114170175,-2.106109929264594,-0.01224185778750666
0.0114172875,-2.098687463994758,-0.01122946984257462
0.0114175575,-2.087553766089944,-0.01089200719425965
0.0114178275,-2.083842533454982,-0.01089200719425873
0.0114180975,-2.072708835550174,-0.01089200719425873
0.0114183675,-2.065286370280284,-0.01055454454594652
0.0114186375,-2.050441439740526,-0.01055454454594606
0.0114189075,-2.039307741835698,-0.01055454454594606
0.0114191775,-2.031885276565809,-0.01055454454594591
0.0114194475,-2.024462811295923,-0.01021708189763277
0.0114197175,-2.013329113391102,-0.009542156601008501
0.0114199875,-2.005906648121206,-0.0098796192493201
0.0114202575,-1.991061717581447,-0.009542156601008808
0.0114205275,-1.979928019676622,-0.009879619249319793
0.0114207975,-1.968794321771796,-0.009542156601010189
0.0114210675,-1.957660623867042,-0.01021708189763154
0.0114213375,-1.946526925962217,-0.009204693952697672
0.0114216075,-1.931681995422458,-0.00920469395269537
0.0114218775,-1.920548297517626,-0.008867231304383159
0.0114221475,-1.901992134342927,-0.008529768656070334
0.0114224175,-1.894569669073034,-0.008192306007757508
0.0114226875,-1.88714720380315,-0.008192306007757355
0.0114229575,-1.876013505898325,-0.007517380711132165
0.0114232275,-1.864879807993496,-0.007854843359444376
0.0114234975,-1.850034877453729,-0.007517380711132012
0.0114237675,-1.838901179548904,-0.007517380711132012
0.0114240375,-1.827767481644079,-0.00751738071113109
0.0114243075,-1.816633783739324,-0.007179918062820414
0.0114245775,-1.805500085834499,-0.00717991806281934
0.0114248475,-1.790655155294742,-0.00717991806281934
0.0114251175,-1.783232690024842,-0.006842455414507283
0.0114253875,-1.764676526850153,-0.006842455414506668
0.0114256575,-1.749831596310381,-0.006504992766194304
0.0114259275,-1.731275433135676,-0.006504992766193997
0.0114261975,-1.727564200500727,-0.006167530117881325
0.0114264675,-1.70900803732602,-0.006167530117881018
0.0114267375,-1.694163106786247,-0.005492604821255982
0.0114270075,-1.671895710976611,-0.005492604821255982
0.0114272775,-1.660762013071779,-0.005492604821255367
0.0114275475,-1.645917082532021,-0.005155142172942542
0.0114278175,-1.634783384627195,-0.004817679524629716
0.0114280875,-1.623649686722324,-0.004480216876317967
0.0114283575,-1.601382290912826,-0.004480216876317967
0.0114286275,-1.582826127738099,-0.004142754228005909
0.0114288975,-1.57169242983326,-0.004142754228005295
0.0114291675,-1.553136266658561,-0.004480216876317659
0.0114294375,-1.542002568753729,-0.004142754228005448
0.0114297075,-1.527157638213964,-0.004142754228005295
0.0114299775,-1.508601475039257,-0.00313036628306728
0.0114302475,-1.49375654449949,-0.003130366283066973
0.0114305175,-1.478911613959723,-0.002792903634754608
0.0114307875,-1.464066683419956,-0.002792903634753994
0.0114310575,-1.449221752880189,-0.002455440986441168
0.0114313275,-1.434376822340516,-0.002117978338130492
0.0114315975,-1.415820659165821,-0.002455440986440861
0.0114318675,-1.397264495991112,-0.002792903634753687
0.0114321375,-1.382419565451335,-0.001780515689818894
0.0114324075,-1.363863402276634,-0.00211797833812865
0.0114326775,-1.352729704371796,-0.001780515689817053
0.0114329475,-1.334173541197089,-0.001443053041504074
0.0114332175,-1.31932861065732,-0.001780515689816592
0.0114334875,-1.304483680117553,-0.001443053041503614
0.0114337575,-1.289638749577779,-0.0007681277448785772
0.0114340275,-1.267371353768134,-0.0007681277448785772
0.0114342975,-1.248815190593425,-0.0007681277448785772
0.0114345675,-1.230259027418708,-0.0007681277448778099
0.0114348375,-1.207991631609088,-0.0004306650965659054
0.0114351075,-1.19685793370425,-0.0004306650965648312
0.0114353775,-1.182013003164578,-9.320244825415446e-05
0.0114356475,-1.163456839989879,0.0002442602000586707
0.0114359175,-1.137478211545304,-9.320244825261988e-05
0.0114361875,-1.122633281005517,0.0002442602000589776
0.0114364575,-1.10778835046575,0.000244260200059438
0.0114367275,-1.092943419925983,0.000244260200059438
0.0114369975,-1.074387256751276,0.000244260200059438
0.0114372675,-1.059542326211495,0.0005817228483724167
0.0114375375,-1.037274930401844,0.0009191854966852419
0.0114378075,-1.015007534592201,0.001256648144998681
0.0114380775,-0.9964513714175003,0.001931573441622797
0.0114383475,-0.9816064408777131,0.001931573441622797
0.0114386175,-0.9593390450682042,0.001931573441622797
0.0114388875,-0.9444941145284137,0.002269036089934548
0.0114391575,-0.9259379513537149,0.002269036089935468
0.0114394275,-0.9036705555440731,0.002606498738247527
0.0114396975,-0.8888256250042923,0.002269036089935929
0.0114399675,-0.8665582291946519,0.002606498738247833
0.0114402375,-0.8480020660199399,0.003281424034873177
0.0114405075,-0.825734670210291,0.002943961386560812
0.0114407775,-0.8108897396705207,0.003618886683186155
0.0114410475,-0.7886223438608667,0.003618886683186155
0.0114413175,-0.7626437154162897,0.003618886683186155
0.0114415875,-0.7477987848765157,0.003618886683186769
0.0114418575,-0.7292426217017987,0.003956349331498827
0.0114421275,-0.7106864585270898,0.003956349331499901
0.0114423975,-0.6921302953523676,0.004293811979812726
0.0114426675,-0.6698628995428588,0.004631274628123403
0.0114429375,-0.6513067363681415,0.005306199924748287
0.0114432075,-0.629039340558498,0.005306199924749514
0.0114434775,-0.6067719447488473,0.005306199924749514
0.0114437475,-0.5845045489391968,0.005643662573062033
0.0114440175,-0.5696596183994265,0.005981125221374858
0.0114442875,-0.5511034552247143,0.00564366257306234
0.0114445575,-0.5251248267801287,0.005981125221374858
0.0114448275,-0.506568663605425,0.005981125221375779
0.0114450975,-0.4917237330656377,0.006656050517999587
0.0114453675,-0.4657451046210792,0.006318587869688297
0.0114456375,-0.4546114067163248,0.006656050517998974
0.0114459075,-0.4249215456368583,0.006318587869688603
0.0114461775,-0.4063653824621141,0.006993513166311032
0.0114464475,-0.3840979866524736,0.006656050518000969
0.0114467175,-0.369253056112683,0.007330975814624623
0.0114469875,-0.354408125572916,0.00699351316631318
0.0114472575,-0.3321407297632722,0.007330975814625391
0.0114475275,-0.3135845665885618,0.007330975814625544
0.0114477975,-0.2950284034138496,0.007668438462938216
0.0114480675,-0.2690497749692607,0.00766843846293883
0.0114483375,-0.2467823791596152,0.008343363759563099
0.0114486075,-0.2282262159848997,0.008005901111250274
0.0114488775,-0.2059588201752407,0.00766843846293975
0.0114491475,-0.1799801917306687,0.00834336375956448
0.0114494175,-0.1614240285559717,0.008680826407876232
0.0114496875,-0.1465790980162992,0.008680826407876232
0.0114499575,-0.1280229348416006,0.009018289056188136
0.0114502275,-0.1094667716668918,0.00935575170450096
0.0114504975,-0.08719937585724802,0.009355751704501574
0.0114507675,-0.06122074741266079,0.00969321435281394
0.0114510375,-0.03895335160299677,0.009693214352814247
0.0114513075,-0.02039718842828631,0.009693214352814247
0.0114515775,0.001870207381364221,0.009693214352814247
0.0114518475,0.02413760319101981,0.009693214352814247
0.0114521175,0.05011623163559859,0.009693214352814247
0.0114523875,0.0686723948103158,0.009693214352815014
0.0114526575,0.09093979061994609,0.01003067700112784
0.0114529275,0.1057847211596186,0.01036813964943852
0.0114531975,0.1169184190644557,0.01104306494606309
0.0114534675,0.1391858148740758,0.01070560229775303
0.0114537375,0.157741978048793,0.01104306494606432
0.0114540075,0.1837206064933718,0.01104306494606493
0.0114542775,0.198565537033154,0.0113805275943773
0.0114545475,0.2245441654777362,0.01171799024269012
0.0114548175,0.2468115612873884,0.01205545289100295
0.0114550875,0.2690789570970372,0.01239291553931531
0.0114553575,0.287635120271746,0.01171799024269089
0.0114556275,0.3061912834464632,0.01239291553931439
0.0114558975,0.324747446621172,0.01171799024269104
0.0114561675,0.3433036097958808,0.01205545289100387
0.0114564375,0.3618597729706013,0.01239291553931562
0.0114567075,0.3841271687802384,0.01239291553931562
0.0114569775,0.402683331954829,0.01239291553931562
0.0114572475,0.4249507277644711,0.01306784083593974
0.0114575175,0.4435068909391867,0.01306784083594096
0.0114577875,0.4583518214789588,0.01306784083594096
0.0114580575,0.4843304499235409,0.01306784083594096
0.0114583275,0.502886613098253,0.01340530348425364
0.0114585975,0.5251540089079052,0.01273037818762844
0.0114588675,0.5511326373524907,0.01306784083594158
0.0114591375,0.5696888005271996,0.01374276613256585
0.0114594075,0.588244963701915,0.01340530348425425
0.0114596775,0.6105123595115571,0.01374276613256784
0.0114599475,0.6290685226861479,0.0144176914291892
0.0114602175,0.6439134532259283,0.01408022878088005
0.0114604875,0.6661808490355654,0.01441769142919088
0.0114607575,0.6847370122102825,0.01441769142919165
0.0114610275,0.7032931753849914,0.01441769142919165
0.0114612975,0.7255605711946369,0.01441769142919165
0.0114615675,0.7404055017344106,0.01441769142919165
0.0114618375,0.7626728975440578,0.01509261672581699
0.0114621075,0.7812290607187664,0.01475515407750417
0.0114623775,0.7997852238934786,0.01441769142919257
0.0114626475,0.8220526197031141,0.01543007937412874
0.0114629175,0.8331863176079596,0.01475515407750371
0.0114631875,0.8554537134176101,0.01441769142919242
0.0114634575,0.8777211092272506,0.01475515407750524
0.0114637275,0.8962772724019474,0.01509261672581699
0.0114639975,0.9111222029416198,0.01509261672581699
0.0114642675,0.9296783661163186,0.01509261672581699
0.0114645375,0.9519457619259607,0.01509261672581699
0.0114648075,0.9742131577356214,0.01509261672581699
0.0114650775,0.9890580882753951,0.01509261672581699
0.0114653475,1.007614251450102,0.01509261672581699
0.0114656175,1.022459181989873,0.01576754202244219
0.0114658875,1.044726577799513,0.01543007937412967
0.0114661575,1.055860275704358,0.01543007937412967
0.0114664275,1.08183890414893,0.01543007937413028
0.0114666975,1.096683834688714,0.01576754202244311
0.0114669675,1.118951230498344,0.01610500467075317
0.0114672375,1.133796161038017,0.01543007937413182
0.0114675075,1.156063556847644,0.01576754202244142
0.0114677775,1.174619720022363,0.01576754202244234
0.0114680475,1.193175883197072,0.0161050046707544
0.0114683175,1.215443279006716,0.01610500467075501
0.0114685875,1.237710674816366,0.01610500467075501
0.0114688575,1.256266837991078,0.01677992996738005
0.0114691275,1.267400535895915,0.01745485526400585
0.0114693975,1.285956699070614,0.01779231791231837
0.0114696675,1.293379164340507,0.01779231791231883
0.0114699375,1.308224094880288,0.01812978056063104
0.0114702075,1.330491490689939,0.01812978056062951
0.0114704775,1.352758886499559,0.01745485526400662
0.0114707475,1.363892584404396,0.01779231791231729
0.0114710175,1.378737514944068,0.01745485526400662
0.0114712875,1.397293678118767,0.01711739261569379
0.0114715575,1.408427376023609,0.01677992996738097
0.0114718275,1.430694771833239,0.01644246731906814
0.0114720975,1.445539702373017,0.01711739261569241
0.0114723675,1.464095865547722,0.01711739261569303
0.0114726375,1.475229563452551,0.01677992996738035
0.0114729075,1.490074493992318,0.01711739261569333
0.0114731775,1.504919424532091,0.01779231791231837
0.0114734475,1.527186820341727,0.01779231791231883
0.0114737175,1.538320518246574,0.01812978056062951
0.0114739875,1.556876681421283,0.0174548552640057
0.0114742575,1.575432844595873,0.0174548552640057
0.0114745275,1.582855309865792,0.01779231791231745
0.0114747975,1.601411473040471,0.01812978056063027
0.0114750675,1.616256403580246,0.01779231791231898
0.0114753375,1.634812566754948,0.01779231791231837
0.0114756075,1.645946264659784,0.017454855264006
0.0114758775,1.65336872992967,0.0174548552640057
0.0114761475,1.664502427834494,0.0174548552640057
0.0114764175,1.683058591009201,0.0174548552640057
0.0114766875,1.697903521548968,0.0174548552640057
0.0114769575,1.71274845208874,0.01745485526400662
0.0114772275,1.731304615263435,0.01812978056063043
0.0114774975,1.742438313168269,0.0177923179123199
0.0114777675,1.757283243708026,0.01846724320894279
0.0114780375,1.76841694161287,0.01812978056063104
0.0114783075,1.783261872152536,0.01812978056063104
